method,metric,n,mean,std,median,baseline_mean,delta_mean,stat,p,effect_r,p_holm
M08,snr_imp_scaled,22,11.945130124982438,3.7384958860833923,12.158112881368172,5.589606047403371,6.355524077579065,0.0,4.76837158203125e-07,1.0,7.152557373046875e-06
M09,snr_imp_scaled,22,11.58834339698784,3.9094183373281814,11.756174100774876,5.589606047403371,5.99873734958447,1.0,9.5367431640625e-07,0.9920948616600791,1.049041748046875e-05
M06,snr_imp_scaled,22,11.448514235053743,3.7509034765881255,12.046106445510524,5.589606047403371,5.85890818765037,1.0,9.5367431640625e-07,0.9920948616600791,1.049041748046875e-05
B01,snr_imp_scaled,22,11.162654773222888,3.5180040784563618,10.977864126703196,5.589606047403371,5.573048725819516,0.0,4.76837158203125e-07,1.0,7.152557373046875e-06
M10,snr_imp_scaled,22,10.536626839763805,3.8690925098244184,11.18725151679789,5.589606047403371,4.947020792360434,3.0,2.384185791015625e-06,0.9762845849802372,1.6689300537109375e-05
M07,snr_imp_scaled,22,10.469790284548976,3.427956477018656,10.787844439019864,5.589606047403371,4.880184237145606,1.0,9.5367431640625e-07,0.9920948616600791,1.049041748046875e-05
B02,snr_imp_scaled,22,9.72535141350057,3.7775316563289016,9.253456350881413,5.589606047403371,4.1357453660972,0.0,4.76837158203125e-07,1.0,7.152557373046875e-06
M04,snr_imp_scaled,22,8.522403036123468,2.993531516374282,8.329361767320757,5.589606047403371,2.9327969887200953,0.0,4.76837158203125e-07,1.0,7.152557373046875e-06
M04np,snr_imp_scaled,22,7.9864987683659905,2.9523751920186965,8.454477979194149,5.589606047403371,2.396892720962618,1.0,9.5367431640625e-07,0.9920948616600791,1.049041748046875e-05
M_FE,snr_imp_scaled,22,6.63403704560946,3.303853508858519,5.80799488155832,5.589606047403371,1.0444309982060884,95.0,0.32088327407836914,0.2490118577075099,0.7845597267150879
M03,snr_imp_scaled,22,6.385187399065279,2.832010185742744,6.484017228586234,5.589606047403371,0.7955813516619077,91.0,0.2615199089050293,0.28063241106719367,0.7845597267150879
M05,snr_imp_scaled,22,5.597625334971107,2.4507142145537397,5.647567077437412,5.589606047403371,0.008019287567736249,115.0,0.7261838912963867,-0.09090909090909091,0.7845597267150879
M05f,snr_imp_scaled,22,3.6068136057578486,2.110079437925333,3.7751176194239973,5.589606047403371,-1.9827924416455227,28.0,0.0006937980651855469,-0.7786561264822134,0.0027751922607421875
M02,snr_imp_scaled,22,3.3809572642450045,2.782653112410634,3.064444423730893,5.589606047403371,-2.2086487831583663,3.0,2.384185791015625e-06,-0.9762845849802372,1.6689300537109375e-05
M00,snr_imp_scaled,22,1.8310705853972182,0.07204286404884351,1.818226609859423,5.589606047403371,-3.7585354620061535,7.0,9.059906005859375e-06,-0.9446640316205533,4.5299530029296875e-05
M00,rmse,22,0.10173665926428228,0.016109783747584358,0.09981481684648238,0.05358126940611387,0.048155389858168404,0.0,4.76837158203125e-07,1.0,7.152557373046875e-06
M_FE,rmse,22,0.06147506348760536,0.017177052221058257,0.06272980889283708,0.05358126940611387,0.007893794081491478,72.0,0.07942724227905273,0.4308300395256917,0.20533275604248047
M02,rmse,22,0.05853814226511,0.0182319264111156,0.05555507217227809,0.05358126940611387,0.0049568728589961236,57.0,0.022916316986083984,0.549407114624506,0.09166526794433594
M05f,rmse,22,0.05607974602768798,0.01376322207654782,0.05614219717050202,0.05358126940611387,0.002498476621574115,70.0,0.06844425201416016,0.44664031620553357,0.20533275604248047
M03,rmse,22,0.05191674816170332,0.014286494439335799,0.052066428233106934,0.05358126940611387,-0.0016645212444105488,79.0,0.12888002395629883,-0.37549407114624506,0.20533275604248047
M04np,rmse,22,0.0486646923666667,0.014502973330557263,0.04730187492547173,0.05358126940611387,-0.004916577039447179,25.0,0.00042819976806640625,-0.8023715415019763,0.0029973983764648438
M04,rmse,22,0.04795520518775614,0.014445664924868372,0.045143732341047904,0.05358126940611387,-0.005626064218357731,28.0,0.0006937980651855469,-0.7786561264822134,0.004162788391113281
M05,rmse,22,0.047079728862990854,0.01448721228105711,0.04442939307364059,0.05358126940611387,-0.006501540543123018,35.0,0.0019183158874511719,-0.7233201581027668,0.00959157943725586
B01,rmse,22,0.033546527533620245,0.015013805803006593,0.031392273899380624,0.05358126940611387,-0.02003474187249363,0.0,4.76837158203125e-07,-1.0,7.152557373046875e-06
B02,rmse,22,0.032544862191417286,0.00936903236913728,0.03260527744880372,0.05358126940611387,-0.021036407214696587,0.0,4.76837158203125e-07,-1.0,7.152557373046875e-06
M10,rmse,22,0.02515684072519905,0.015745119018458473,0.020262757648983692,0.05358126940611387,-0.028424428680914826,1.0,9.5367431640625e-07,-0.9920948616600791,9.5367431640625e-06
M07,rmse,22,0.024635678979731786,0.013179879827891728,0.021986130041138148,0.05358126940611387,-0.028945590426382086,1.0,9.5367431640625e-07,-0.9920948616600791,9.5367431640625e-06
M06,rmse,22,0.02404919984159436,0.013150470048234284,0.020042890718643153,0.05358126940611387,-0.029532069564519516,0.0,4.76837158203125e-07,-1.0,7.152557373046875e-06
M08,rmse,22,0.023382664656018962,0.012172539192980466,0.019939796906925954,0.05358126940611387,-0.030198604750094917,0.0,4.76837158203125e-07,-1.0,7.152557373046875e-06
M09,rmse,22,0.02269688570749471,0.014126653359588284,0.01825728763430432,0.05358126940611387,-0.030884383698619157,1.0,9.5367431640625e-07,-0.9920948616600791,9.5367431640625e-06
M09,cc,22,0.9808387674052125,0.03520012001386072,0.988697574637864,0.925980215689356,0.054858551715856824,1.0,9.5367431640625e-07,0.9920948616600791,1.049041748046875e-05
M07,cc,22,0.9797942890754416,0.03349691438617881,0.9885881408398913,0.925980215689356,0.0538140733860855,1.0,9.5367431640625e-07,0.9920948616600791,1.049041748046875e-05
M08,cc,22,0.9789623502070088,0.026206621600154092,0.987354052415694,0.925980215689356,0.05298213451765268,0.0,4.76837158203125e-07,1.0,7.152557373046875e-06
M06,cc,22,0.978081996035155,0.03083949245343011,0.9863244325975709,0.925980215689356,0.052101780345799015,1.0,9.5367431640625e-07,0.9920948616600791,1.049041748046875e-05
M10,cc,22,0.9773846304260144,0.04355222885836824,0.9875651722581702,0.925980215689356,0.051404414736658396,14.0,5.245208740234375e-05,0.8893280632411067,0.00041961669921875
B02,cc,22,0.9601176281960594,0.018938626344836302,0.9612884308193776,0.925980215689356,0.03413741250670351,0.0,4.76837158203125e-07,1.0,7.152557373046875e-06
B01,cc,22,0.959679841231745,0.027760511025932896,0.970065519631182,0.925980215689356,0.033699625542388915,0.0,4.76837158203125e-07,1.0,7.152557373046875e-06
M05,cc,22,0.937330723831499,0.03429517427930786,0.9403409652023689,0.925980215689356,0.011350508142142996,45.0,0.006649494171142578,0.6442687747035574,0.04654645919799805
M04,cc,22,0.932161429994479,0.025474237569721635,0.9344630412805859,0.925980215689356,0.006181214305122842,64.0,0.042498111724853516,0.49407114624505927,0.2549886703491211
M04np,cc,22,0.929905285825171,0.02750349666996024,0.9338621324456554,0.925980215689356,0.003925070135814895,64.0,0.042498111724853516,0.49407114624505927,0.2549886703491211
M03,cc,22,0.922965962079914,0.029112339120145738,0.9285081892499195,0.925980215689356,-0.00301425360944208,70.0,0.06844425201416016,-0.44664031620553357,0.2549886703491211
M05f,cc,22,0.9200269194332802,0.03658269565498057,0.9294469616215286,0.925980215689356,-0.005953296256075557,71.0,0.0737757682800293,-0.43873517786561267,0.2549886703491211
M02,cc,22,0.9166580043412872,0.040409843021537765,0.9233461614986124,0.925980215689356,-0.00932221134806876,70.0,0.06844425201416016,-0.44664031620553357,0.2549886703491211
M_FE,cc,22,0.9082285552742277,0.03148713387501389,0.9099753342606317,0.925980215689356,-0.017751660415128025,66.0,0.050072669982910156,-0.4782608695652174,0.2549886703491211
M00,cc,22,0.8346512385581789,0.004831506854870442,0.8341443340046446,0.925980215689356,-0.09132897713117698,0.0,4.76837158203125e-07,-1.0,7.152557373046875e-06
B01,se,22,0.993186258007862,0.014079921131094386,0.9978096887945171,0.9864949314746302,0.006691326533231775,8.0,0.0011841930356640954,0.8954248366013072,0.01776289553496143
M07,se,22,0.9888479422650363,0.02239322301475915,0.9985969628372005,0.9864949314746302,0.002353010790405992,31.0,0.0176206611104818,0.6374269005847953,0.2114479333257816
B02,se,22,0.9876010420173063,0.015772404377347077,0.9907899779630163,0.9864949314746302,0.001106110542675928,7.0,0.02079521585359911,0.7878787878787878,0.22874737438959022
M06,se,22,0.9872809502108723,0.02787663003217667,0.9985969628372005,0.9864949314746302,0.0007860187362420415,37.0,0.034669963150986444,0.5672514619883041,0.312029668358878
M04,se,22,0.9870484184386693,0.016414376753004906,0.99060086324398,0.9864949314746302,0.0005534869640391131,11.0,0.6120898800892568,0.21428571428571427,1.0
M04np,se,22,0.9869960354213134,0.016561173730882454,0.99060086324398,0.9864949314746302,0.0005011039466831437,11.0,0.6120898800892568,0.21428571428571427,1.0
M03,se,22,0.9869135892927665,0.016383143611677014,0.9901936581084047,0.9864949314746302,0.0004186578181362447,18.0,0.5939546753269146,0.2,1.0
M02,se,22,0.9867222681813431,0.016450468155795553,0.9897609728823036,0.9864949314746302,0.00022733670671285208,3.0,0.4652088184521418,0.4,1.0
M_FE,se,22,0.9865692036077259,0.016380353357005197,0.9894617791307289,0.9864949314746302,7.427213309566224e-05,0.0,0.31731050786291415,1.0,1.0
M00,se,22,0.9865498282686574,0.016452760739417236,0.9894617791307289,0.9864949314746302,5.48967940272341e-05,0.0,0.31731050786291415,1.0,1.0
M05,se,22,0.9863990466451522,0.01658367224504042,0.9897609728823036,0.9864949314746302,-9.588482947802224e-05,41.0,0.7531523647659145,0.0989010989010989,1.0
M08,se,22,0.9854435986876106,0.03766407027030581,0.9979355871758249,0.9864949314746302,-0.0010513327870195967,23.0,0.011322371449485434,0.6993464052287581,0.15851320029279609
M09,se,22,0.9837786680335072,0.04441192100124248,0.9975143614670792,0.9864949314746302,-0.0027162634411229984,30.0,0.015647093863347505,0.6491228070175439,0.20341222022351757
M05f,se,22,0.9836260206471547,0.015609289961948027,0.9856387764282502,0.9864949314746302,-0.0028689108274758375,38.0,0.03857970370059411,-0.5555555555555556,0.312029668358878
M10,se,22,0.9715356339388077,0.09827185041551416,0.9979249198264479,0.9864949314746302,-0.014959297535822464,36.0,0.031103769479907197,0.5789473684210527,0.31103769479907195
B01,ppv,22,0.9995816789047072,0.0011851050559505633,1.0,0.9770586790797767,0.02252299982493048,0.0,0.0002930525201924893,1.0,0.00439578780288734
M09,ppv,22,0.9981247357486129,0.005747516929874355,1.0,0.9770586790797767,0.021066056668836305,0.0,0.0002930525201924893,1.0,0.00439578780288734
M07,ppv,22,0.9975512003647583,0.006093445852523339,1.0,0.9770586790797767,0.020492521284981448,0.0,0.0002930525201924893,1.0,0.00439578780288734
M06,ppv,22,0.9956537164734588,0.013621015675404123,1.0,0.9770586790797767,0.01859503739368217,3.0,0.0005026300645801942,0.9607843137254902,0.0060315607749623305
M10,ppv,22,0.9936640135164503,0.022723816606965017,1.0,0.9770586790797767,0.016605334436673527,16.0,0.0041838683298923394,0.7908496732026143,0.033557357904623
M08,ppv,22,0.9935141342520057,0.019417457963473432,1.0,0.9770586790797767,0.016455455172228982,9.0,0.0013967480890075116,0.8823529411764706,0.013967480890075115
M04np,ppv,22,0.9824232085853272,0.017756990462072547,0.9860196365975475,0.9770586790797767,0.005364529505550401,4.0,0.0037285953227358883,0.9120879120879121,0.033557357904623
M03,ppv,22,0.9815947674840676,0.01854207334344678,0.987245157288215,0.9770586790797767,0.004536088404290958,1.0,0.0012250235420688657,0.9809523809523809,0.013475258962757523
M04,ppv,22,0.9811963075347798,0.018657467850259214,0.9849094395243203,0.9770586790797767,0.004137628455002918,1.0,0.010862224704815628,0.9555555555555556,0.05431112352407814
B02,ppv,22,0.980151405255845,0.01958574943468776,0.9866186758684619,0.9770586790797767,0.00309272617606814,9.0,0.006318521553682498,0.8285714285714286,0.04422965087577749
M05,ppv,22,0.9795854986369712,0.02087674165653374,0.9882403477352775,0.9770586790797767,0.002526819557194501,16.0,0.007169734292803208,0.7647058823529411,0.04422965087577749
M05f,ppv,22,0.9783415339913026,0.02076922825532996,0.9826424612260356,0.9770586790797767,0.0012828549115257387,53.0,0.2659466461059248,0.30718954248366015,0.7978399383177743
M02,ppv,22,0.9780676671663243,0.02110960995235121,0.984441791303301,0.9770586790797767,0.0010089880865476715,24.0,0.7212766990291557,0.12727272727272726,0.7978399383177743
M00,ppv,22,0.9769136728843318,0.022486606255658917,0.9848869865678387,0.9770586790797767,-0.00014500619544492594,2.0,0.27332167829229814,-0.6,0.7978399383177743
M_FE,ppv,22,0.9767919955075322,0.022711742423955725,0.9848869865678387,0.9770586790797767,-0.0002666835722447464,0.0,0.10880943004054568,-1.0,0.4352377201621827
M05f,rpeak_mae_ms,22,9.327826971569326,6.175494183624768,8.694411472796938,8.695154721729812,0.6326722498395145,46.0,0.007443428039550781,0.6363636363636364,0.10420799255371094
M05,rpeak_mae_ms,22,8.81346708977025,5.851008930929851,8.245581908813492,8.695154721729812,0.11831236804043833,76.0,0.1054534912109375,0.39920948616600793,1.0
M03,rpeak_mae_ms,22,8.800271706512255,5.897800650639996,8.064355470726984,8.695154721729812,0.10511698478244308,36.0,0.0021948814392089844,0.7154150197628458,0.032923221588134766
M04,rpeak_mae_ms,22,8.732094749353955,5.908871305704581,7.963352561962351,8.695154721729812,0.03694002762414485,42.0,0.010628323936509337,0.6363636363636364,0.13816821117462139
M04np,rpeak_mae_ms,22,8.728788723234297,5.887723281555452,7.9438482813768765,8.695154721729812,0.03363400150448423,65.0,0.046160221099853516,0.48616600790513836,0.5539226531982422
M00,rpeak_mae_ms,22,8.693104315291658,5.8990917602706725,7.891831260537654,8.695154721729812,-0.0020504064381541287,14.0,1.0,0.0,1.0
M_FE,rpeak_mae_ms,22,8.69227868437418,5.898514704751967,7.881849731694233,8.695154721729812,-0.0028760373556322035,13.0,0.8657723749926214,-0.07142857142857142,1.0
M02,rpeak_mae_ms,22,8.689662749662425,5.876216574334442,7.880062968838749,8.695154721729812,-0.005491972067387632,126.0,1.0,0.003952569169960474,1.0
B02,rpeak_mae_ms,22,8.675143149373287,5.855646614928147,7.888852535374863,8.695154721729812,-0.020011572356524968,111.0,0.6327285766601562,-0.1225296442687747,1.0
B01,rpeak_mae_ms,22,8.618847090560388,5.848738574889546,7.896980905038072,8.695154721729812,-0.07630763116942493,82.0,0.15597057342529297,-0.35177865612648224,1.0
M07,rpeak_mae_ms,22,8.610802821720801,5.815438481303563,7.953394275515546,8.695154721729812,-0.08435190000901151,105.0,0.5028400421142578,-0.16996047430830039,1.0
M08,rpeak_mae_ms,22,8.605221305327364,5.84714945261892,7.889306221930573,8.695154721729812,-0.08993341640244627,82.0,0.15597057342529297,-0.35177865612648224,1.0
M06,rpeak_mae_ms,22,8.55706542004752,5.801835761434072,7.7052079966421925,8.695154721729812,-0.13808930168229233,76.0,0.1054534912109375,-0.39920948616600793,1.0
M09,rpeak_mae_ms,22,8.488977630229263,5.817079799885881,7.063856047657721,8.695154721729812,-0.20617709150054908,77.0,0.11287164688110352,-0.391304347826087,1.0
M10,rpeak_mae_ms,22,8.461386320565992,5.772677207974507,7.178141309879595,8.695154721729812,-0.2337684011638208,77.0,0.18084118136338856,-0.3333333333333333,1.0
M05,qrs_dur_err_ms,21,30.57778829136542,24.951337684309014,18.445111377884487,14.910919650855956,15.66686864050946,56.0,0.038437843322753906,0.5151515151515151,0.5765676498413086
M07,qrs_dur_err_ms,21,21.516350763804567,17.062564968662194,17.982334869431643,14.910919650855956,6.605431112948606,62.0,0.06464958190917969,0.46320346320346323,0.9050941467285156
M05f,qrs_dur_err_ms,21,20.22053002478657,13.795104661654335,16.584193651497756,14.910919650855956,5.309610373930612,79.0,0.21568012237548828,0.31601731601731603,1.0
M02,qrs_dur_err_ms,21,18.22800138311687,12.992154331277463,10.401412330240447,14.910919650855956,3.317081732260912,72.0,0.1372833251953125,0.37662337662337664,1.0
M03,qrs_dur_err_ms,21,17.680710824829685,12.871579355381554,12.459560749804652,14.910919650855956,2.7697911739737284,77.0,0.1906871795654297,0.3333333333333333,1.0
M06,qrs_dur_err_ms,21,17.49200356348441,15.605265505493394,12.952107279693486,14.910919650855956,2.581083912628453,90.0,0.39258384704589844,0.22077922077922077,1.0
M09,qrs_dur_err_ms,21,16.11708558256697,16.374387737413013,10.255031922970447,14.910919650855956,1.2061659317110098,100.0,0.6091489791870117,0.1341991341991342,1.0
M10,qrs_dur_err_ms,21,15.65792294895208,16.16414756652561,11.409973123549712,14.910919650855956,0.7470032980961216,97.0,0.539189338684082,0.16017316017316016,1.0
M00,qrs_dur_err_ms,21,15.519925200362964,15.373298504699966,11.019607843137253,14.910919650855956,0.6090055495070078,113.0,0.945744514465332,0.021645021645021644,1.0
M08,qrs_dur_err_ms,21,13.992760785631603,14.097488184705155,7.910434530506002,14.910919650855956,-0.9181588652243542,105.0,0.7334699630737305,-0.09090909090909091,1.0
M04np,qrs_dur_err_ms,21,13.768402166450382,12.391261749728812,9.46273204196933,14.910919650855956,-1.1425174844055705,104.0,0.7079343795776367,0.09956709956709957,1.0
M04,qrs_dur_err_ms,21,13.256746714570065,11.790812289978765,9.063764987363486,14.910919650855956,-1.65417293628589,111.0,0.8917322158813477,0.03896103896103896,1.0
M_FE,qrs_dur_err_ms,21,12.425027182408014,14.133464513840265,8.54686844262456,14.910919650855956,-2.4858924684479455,83.0,0.27221012115478516,-0.2813852813852814,1.0
B02,qrs_dur_err_ms,21,12.385080299824343,10.731766110616398,7.377777777777777,14.910919650855956,-2.5258393510316157,100.0,0.6091489791870117,-0.1341991341991342,1.0
B01,qrs_dur_err_ms,21,9.956924584895821,9.807073861736937,7.115803136614377,14.910919650855956,-4.953995065960138,66.0,0.08879852294921875,-0.42857142857142855,1.0
